High max velocity hand: 3095.9749516343113
527.7785;-117.5558;-1.6685;506.3671;-25.2559;233.7944;474.9130;2.0749;554.6777
527.7391;-117.7064;-1.6945;506.4166;-25.4978;233.7150;474.9611;2.0157;554.6153
527.6964;-117.8646;-1.7408;506.4737;-25.7373;233.6415;474.9667;1.9507;554.5342
527.6472;-118.0101;-1.7595;506.4797;-25.8292;233.6124;475.0357;1.8004;554.5167
527.6089;-118.1436;-1.7807;506.5365;-26.0725;233.5512;475.0615;1.7811;554.4403
527.5784;-118.2839;-1.8203;506.6019;-26.3198;233.4698;475.0909;1.7535;554.3542
527.5487;-118.4419;-1.8894;506.6625;-26.5591;233.3873;475.1189;1.6869;554.2694
527.5271;-118.5794;-1.9228;506.6744;-26.7073;233.3193;475.1581;1.5747;554.2113
527.4965;-118.7348;-1.9724;506.6744;-26.8466;233.2561;475.2472;1.4638;554.2097
527.4680;-118.8687;-1.9962;506.6744;-27.0385;233.1765;475.3079;1.4142;554.1586
527.4450;-119.0062;-2.0448;506.6555;-27.1236;233.1216;475.3870;1.3058;554.1566
527.4179;-119.1278;-2.0816;506.6265;-27.2506;233.0477;475.4918;1.2306;554.1435
527.3923;-119.2682;-2.1248;506.5685;-27.3589;232.9576;475.5623;1.1553;554.1141
527.3607;-119.4140;-2.1562;506.5522;-27.5338;232.8558;475.6422;1.0949;554.0635
527.3269;-119.5569;-2.1659;506.5196;-27.6796;232.7588;475.7354;1.0288;554.0487
527.2822;-119.7105;-2.2057;506.4852;-27.8169;232.6612;475.7854;0.9623;554.0013
527.2276;-119.8581;-2.2378;506.4425;-27.9325;232.5731;475.8872;0.8833;553.9927
527.1727;-120.0017;-2.2658;506.3988;-28.0302;232.4994;475.9810;0.7980;553.9777
527.1160;-120.1464;-2.2996;506.3796;-28.1442;232.4400;476.0251;0.7097;553.9328
527.0643;-120.2911;-2.3472;506.3529;-28.2306;232.3952;476.0867;0.6263;553.9023
527.0079;-120.4239;-2.3880;506.3389;-28.3416;232.3374;476.1380;0.5837;553.8528
526.9562;-120.5672;-2.4319;506.3118;-28.4286;232.2772;476.1765;0.5665;553.7919
526.8911;-120.7055;-2.4773;506.2542;-28.4440;232.2513;476.2244;0.4822;553.7647
526.8120;-120.8546;-2.5418;506.2247;-28.5047;232.2118;476.2661;0.4390;553.7147
526.7310;-120.9645;-2.5515;506.2015;-28.5768;232.1809;476.3097;0.4069;553.6673
526.6461;-121.0878;-2.6084;506.1383;-28.5979;232.1385;476.3362;0.3604;553.6380
526.5608;-121.2035;-2.6574;506.1148;-28.6754;232.1038;476.3823;0.3325;553.5251
526.4579;-121.3207;-2.7138;506.0670;-28.7484;232.0403;476.4037;0.2933;553.5060
526.3572;-121.4268;-2.7647;506.0210;-28.8320;231.9744;476.4639;0.2571;553.4739
526.2579;-121.5309;-2.8097;505.9564;-28.8899;231.9252;476.5107;0.1844;553.4550
526.1626;-121.6579;-2.8774;505.8961;-28.9427;231.8886;476.5386;0.1212;553.4292
526.0638;-121.7786;-2.8774;505.8652;-29.0663;231.8242;476.5545;0.0911;553.3836
525.9413;-121.9441;-2.8774;505.8451;-29.2009;231.7435;476.5545;0.0809;553.3239
525.7960;-122.1201;-2.8581;505.8182;-29.2599;231.6767;476.5545;0.0013;553.2813
525.6303;-122.3470;-2.7793;505.8182;-29.2599;231.5874;476.5024;-0.1056;553.2222
525.4603;-122.6223;-2.6437;505.8182;-29.2599;231.5650;476.3729;-0.2863;553.1953
525.3216;-122.9942;-2.4806;505.8621;-29.2361;231.5650;476.1457;-0.5741;553.1953
525.1904;-123.4736;-2.2118;505.8627;-28.8205;231.5650;475.9505;-1.0625;553.1953
525.0750;-124.1259;-1.8358;506.0149;-28.4479;231.7289;475.7009;-1.5407;553.2614
524.9575;-124.9451;-1.2624;506.3453;-28.1380;232.0125;475.3840;-2.0552;553.3270
524.8643;-126.0274;-0.5209;506.8054;-27.7909;232.3485;475.1348;-2.5164;553.4462
524.8002;-127.3090;0.5163;507.3214;-27.3985;232.6854;475.0594;-2.9026;553.6659
524.7984;-128.8206;1.8050;507.8573;-26.9909;233.0308;475.0304;-3.2302;553.9738
524.6254;-130.6115;3.2508;508.4494;-26.6322;233.4097;475.0293;-3.5392;554.3575
524.0203;-132.8333;4.8863;509.0708;-26.2557;233.8347;475.0248;-3.8920;554.7652
523.3103;-135.6757;7.0287;509.7479;-25.9024;234.3086;474.8970;-4.4801;555.2684
522.7367;-138.3863;9.2060;510.4654;-25.6544;234.7718;474.6822;-5.2352;555.7842
521.8354;-141.7901;11.6197;511.1896;-25.5786;235.2636;474.4115;-6.1768;556.3184
520.9002;-145.4370;14.1470;512.0154;-25.5786;235.8279;473.9863;-7.0430;556.7771
519.9094;-149.4876;17.0296;512.9105;-25.5786;236.4121;473.5191;-7.8523;557.2164
518.8213;-154.0312;20.1970;513.8071;-25.8996;236.9600;473.1132;-8.5164;557.5906
517.6156;-159.1309;23.7254;514.7449;-26.4381;237.3922;472.6434;-9.1697;557.9672
515.7200;-164.7823;27.2966;515.8232;-27.2664;237.9445;472.0704;-9.7247;558.2863
513.9003;-171.0632;31.4485;516.9797;-28.4150;238.6180;471.4570;-10.0752;558.5497
512.1016;-171.0632;31.4485;518.1831;-29.7546;239.4570;470.7900;-10.2205;558.7238
510.4356;-171.0632;31.4485;519.3146;-31.1784;240.3352;470.1401;-10.2923;558.9380
507.4877;-165.8031;22.4643;520.4009;-33.0538;241.3959;469.6516;-10.3557;559.1113
505.4196;-165.8031;22.4643;521.4724;-35.1875;242.4321;469.1860;-10.4086;559.2808
503.4088;-165.8031;22.4643;522.7064;-37.6151;243.5360;468.5864;-10.4086;559.4544
501.6414;-172.1534;24.8264;523.9316;-40.3106;244.7258;467.9407;-10.4865;559.5881
499.4900;-178.2768;29.5027;525.1982;-43.3177;245.9876;467.2151;-10.6916;559.7188
497.3710;-178.2768;29.5027;526.4388;-46.6206;247.3214;466.4771;-10.8344;559.7683
495.1560;-178.2768;29.5027;527.6063;-50.2383;248.7223;465.7598;-10.9945;559.8703
491.3675;-173.9243;24.7988;528.5404;-54.0412;250.2198;465.1464;-11.2504;559.9957
487.5481;-173.9243;24.7988;529.2832;-57.8731;251.8380;464.4635;-11.7402;560.2481
485.4855;-173.9243;24.7988;529.9577;-61.9857;253.5583;463.7995;-12.2826;560.5570
482.7780;-189.5759;40.9500;530.5920;-66.4235;255.4360;463.2383;-13.0241;561.0302
479.9576;-203.5029;56.2428;531.1163;-71.0926;257.4202;462.5290;-13.7479;561.4855
476.8784;-213.8241;69.1252;531.6941;-76.2434;259.5533;461.8553;-14.2583;561.8847
474.2760;-231.9449;90.0065;532.2531;-81.8114;261.9163;461.1289;-14.4486;562.1406
471.1687;-243.3963;105.3094;532.7210;-87.7615;264.4203;460.4693;-14.4486;562.4204
467.4156;-246.7956;113.6953;533.2132;-94.2069;267.1892;459.7313;-14.4615;562.4754
464.3654;-258.3530;130.3125;533.8089;-101.1154;270.4948;458.6592;-14.4616;562.5869
464.3110;-309.1639;184.1511;533.8089;-107.9764;273.6237;457.9605;-14.4616;562.8629
461.7271;-319.7990;201.9910;533.8089;-115.2973;276.9705;457.3445;-14.5724;563.0389
458.6426;-328.1653;217.5620;533.6266;-122.9447;280.5757;456.7771;-14.5724;563.4629
455.8391;-340.3179;236.4912;533.2779;-130.8654;284.5684;456.0767;-14.5724;563.6309
453.6818;-342.7915;259.4960;532.9208;-139.0793;289.0350;455.0187;-14.6540;563.7269
450.3979;-350.5750;263.4391;532.5486;-147.3539;293.9328;454.1036;-15.3681;564.4856
444.1932;-357.6270;275.7331;532.0503;-155.9307;299.0928;453.4006;-16.3667;565.4998
440.8501;-360.5359;279.1779;531.2209;-164.6397;304.5320;452.5063;-17.2821;566.4178
437.7095;-360.5359;297.1721;530.0845;-173.4180;310.2442;451.6086;-18.2831;567.4517
434.9035;-373.1869;317.7883;528.6124;-182.2028;316.1437;450.7815;-19.3241;568.6317
431.6150;-379.7317;333.8395;527.1586;-191.0699;322.4506;449.7613;-20.6306;569.9125
428.3451;-380.2161;351.0745;525.6377;-200.0535;329.3378;448.7825;-21.6563;570.9183
423.1450;-389.1462;352.9925;523.6146;-208.8891;336.1024;447.8282;-23.1170;572.5008
420.1737;-389.6618;371.1118;521.4259;-217.6356;343.2236;446.6758;-24.7819;574.2460
417.0552;-398.0501;387.8720;519.0171;-226.1981;350.5924;445.3020;-26.5909;576.1790
413.9284;-406.4873;404.4970;516.4088;-234.5897;358.2554;444.0669;-28.2506;578.1708
410.7992;-415.4332;421.3228;513.6039;-242.8588;366.1776;442.7118;-29.9412;580.3983
407.5846;-423.5872;437.1556;510.2225;-251.3448;374.1011;441.9462;-31.0173;582.2390
404.1160;-429.8783;451.0569;507.0264;-259.0216;382.7149;440.6334;-32.4988;584.3706
400.8134;-437.1437;451.0569;503.3756;-266.5337;390.9647;439.5977;-33.9991;586.6822
397.4393;-443.7742;451.0569;499.4357;-273.9371;399.4052;438.5311;-35.3862;589.0028
343.2045;-947.4674;408.4809;495.3772;-281.1006;407.8458;437.2984;-37.0707;591.4030
343.2045;-954.0912;397.3276;491.1116;-288.0382;416.4538;435.9398;-38.8154;593.8362
343.2045;-954.0912;397.3276;486.8291;-294.7439;425.2813;434.3095;-40.6773;596.2187
348.7669;-954.0912;397.3276;482.4571;-301.1563;434.0428;432.3481;-42.7304;598.9810
382.3313;-537.7659;531.2182;478.0421;-307.2160;443.0512;430.1401;-44.6838;601.9023
382.3313;-531.2206;553.9449;473.5172;-313.0031;451.9108;427.9125;-46.6381;604.7790
382.3313;-531.2206;570.9490;469.0164;-318.4979;460.8988;425.5547;-48.4229;607.7245
378.6117;-531.2206;584.7590;464.4458;-323.6293;469.6680;423.4227;-49.9230;610.4564
375.7561;-534.6655;596.1502;459.8288;-328.3567;478.3432;421.6909;-51.0945;612.8216
373.1794;-538.7430;605.7810;454.8956;-332.6805;486.6287;420.6648;-51.8282;614.7640
370.6577;-543.1885;614.1231;449.7722;-336.6329;494.5158;420.3806;-52.5846;616.8444
368.2020;-547.7657;621.4828;444.6434;-340.2753;502.0869;420.3806;-52.9416;618.3479
365.7131;-552.4464;628.0976;439.2897;-343.7053;509.1454;420.3061;-53.1182;619.6458
363.1977;-556.9716;633.9516;434.0356;-346.5357;516.0237;420.1720;-53.2506;620.9345
360.4851;-561.5435;639.0723;429.8902;-349.0904;522.9813;419.8434;-53.8635;622.4248
357.8729;-565.7770;643.5790;426.2466;-351.5010;529.5219;418.8795;-54.6553;624.2104
355.2224;-569.6197;647.4628;422.7279;-353.7007;535.4729;418.0094;-55.3908;625.8695
352.7627;-572.9939;650.9245;419.3525;-355.5736;540.9169;417.3978;-56.0297;627.3527
350.4613;-575.1991;653.7394;415.9494;-357.2133;545.7370;417.3157;-56.5683;628.5782
348.5867;-577.5458;656.3792;412.5805;-358.6279;550.0384;417.2532;-56.9152;629.4818
346.7754;-579.6310;658.6672;409.4634;-359.8949;553.9606;417.1579;-57.2918;630.1946
344.9900;-581.9022;660.8015;406.5815;-361.0654;557.4298;417.1536;-57.6778;631.0000
343.4216;-583.4621;662.5280;404.2649;-362.1513;560.6525;416.6961;-58.2311;631.8319
342.0619;-584.8537;663.9515;402.0886;-363.1715;563.3779;416.3111;-58.8290;632.7134
340.8811;-586.1719;665.1961;400.0413;-364.0217;565.5653;416.0471;-59.4001;633.3095
339.7268;-587.3447;666.0445;398.2803;-364.8063;567.4036;416.0471;-59.9596;633.7117
338.6325;-588.2980;666.6624;396.6206;-365.4471;568.7668;416.0471;-60.3783;633.7117
337.5578;-589.0683;667.2311;395.2015;-366.0973;569.8873;416.1484;-60.7514;633.7117
336.4873;-589.8359;667.6688;393.9487;-366.7338;570.6997;416.5105;-61.0858;633.6028
335.4372;-590.5685;667.9963;392.9940;-367.2951;571.2961;416.9036;-61.4261;633.2487
334.4065;-591.3606;668.0291;392.2081;-367.8020;571.6361;417.4216;-61.7298;632.7260
333.4867;-592.0046;668.0291;391.6237;-368.1883;571.6361;418.0795;-62.0024;631.8630
332.6524;-592.1826;668.0291;391.0270;-368.5290;571.6361;419.0266;-62.2336;630.7504
332.0597;-592.4060;667.5976;390.5123;-368.7801;571.3609;420.0023;-62.4407;629.5498
331.6997;-592.6821;667.0519;390.1483;-368.9731;570.8511;420.8439;-62.6499;628.4639
