High max velocity hand: 752.1932165693598
520.2174;-83.9426;-9.1447;496.2122;2.9044;228.5855;467.5214;20.1600;549.2491
520.0110;-84.1411;-9.1542;496.1297;2.6501;228.5637;467.4633;19.9174;549.2491
519.7968;-84.3750;-9.1542;496.0696;2.3904;228.5586;467.3638;19.5287;549.2491
519.5843;-84.6447;-9.1542;496.0399;2.0898;228.5586;467.3541;19.2355;549.2796
519.3483;-84.9396;-9.1043;496.0399;1.8159;228.5586;467.2423;18.9094;549.2915
519.1092;-85.2870;-9.0467;496.0399;1.5173;228.5696;467.1171;18.6334;549.2992
518.8531;-85.6864;-8.9417;496.0537;1.2112;228.5726;466.9462;18.2153;549.3281
518.5623;-86.1541;-8.8065;496.0917;0.9144;228.6048;466.7792;17.7520;549.3281
518.2965;-86.6598;-8.6667;496.1472;0.6103;228.6599;466.4891;17.2182;549.4157
518.0214;-87.2074;-8.5149;496.2122;0.3068;228.7174;466.2777;16.6390;549.5065
517.7793;-87.8155;-8.3411;496.2783;-0.0002;228.7655;466.2589;15.8740;549.8018
517.5212;-88.4670;-8.0894;496.3446;-0.3179;228.8176;466.1682;15.5037;549.9173
517.5116;-89.2161;-7.6582;496.4600;-0.6745;228.8651;466.0734;14.9290;550.1070
517.3789;-90.0364;-7.3183;496.5558;-0.9942;228.8914;465.8612;14.3129;550.2269
517.1993;-90.9380;-6.9807;496.6747;-1.3755;228.9017;465.8202;13.6952;550.3314
517.1001;-91.9410;-6.4301;496.8782;-1.8590;228.9019;465.5710;13.4339;550.4266
516.9245;-93.0190;-5.8950;497.0554;-2.2561;228.9187;465.4634;13.1305;550.4287
516.7133;-94.1958;-5.3491;497.2817;-2.6371;228.9364;465.4164;12.7195;550.4287
516.4889;-95.5217;-4.9170;497.4778;-3.0028;228.9517;465.3626;12.3590;550.4391
516.3956;-96.8355;-4.1108;497.7083;-3.3893;229.0190;465.3573;11.9012;550.5794
516.1602;-98.2668;-3.4153;497.9733;-3.7976;229.0749;465.3272;11.6146;550.5911
515.8619;-99.8641;-2.7566;498.2473;-4.2213;229.1770;465.3272;11.4332;550.6136
515.5208;-101.5840;-2.0030;498.4822;-4.6561;229.2961;465.2086;11.2231;550.5911
515.0867;-103.4875;-1.1804;498.7360;-5.1487;229.4176;465.0054;11.1386;550.5911
514.5337;-105.6019;-0.2866;499.0020;-5.6716;229.5435;464.9872;10.9516;550.6233
513.9201;-107.8423;0.5866;499.2082;-6.1773;229.7444;464.9794;10.6465;550.6233
513.2691;-110.1347;1.5105;499.3817;-6.7044;229.9237;464.8272;10.3678;550.6043
512.5727;-112.5848;2.4799;499.5492;-7.2628;230.1274;464.6274;10.0376;550.6043
511.8976;-115.0503;3.4458;499.6980;-7.8298;230.3466;464.3426;9.6270;550.5526
511.1900;-117.6753;4.5453;499.8745;-8.4310;230.6388;464.0001;9.1645;550.5377
510.4617;-120.3757;5.6486;500.0362;-9.0659;230.8375;463.6886;8.5905;550.5377
509.7394;-123.2643;6.9366;500.2809;-9.8069;230.9398;463.3582;8.0564;550.5377
508.9416;-126.2517;8.2391;500.5599;-10.6247;231.2035;462.9647;7.4735;550.5401
508.1285;-129.4941;9.7672;500.8366;-11.3469;231.3758;462.4887;6.6930;550.5781
507.3164;-132.8496;11.3893;501.1955;-12.1609;231.7350;462.1133;5.8965;550.6558
506.3958;-136.4222;13.2034;501.5487;-13.0525;232.0974;461.7019;5.2250;550.7163
505.4545;-140.0911;15.2084;501.9673;-14.0034;232.4768;461.2423;4.4486;550.8349
504.3351;-144.1403;17.4132;502.4670;-15.0593;232.9747;460.7177;3.7447;550.9485
503.2532;-148.4633;19.9656;503.0710;-16.2401;233.4955;460.3163;2.9697;551.1234
501.9025;-153.1441;22.6749;503.7793;-17.5241;234.1359;459.8991;2.2101;551.3569
500.0171;-158.1850;25.4954;504.6060;-18.9581;234.7172;459.3381;1.4956;551.5384
498.0923;-163.7392;28.7211;505.4668;-20.4662;235.5030;458.7801;0.8139;551.8178
496.2042;-163.7392;28.7211;506.4162;-22.3083;236.3604;458.5236;0.3769;552.1279
494.3900;-163.7392;28.7211;507.3849;-24.0682;237.1460;457.7657;-0.4770;552.4327
491.2563;-162.8167;20.2510;508.3437;-26.0801;238.0810;457.3470;-1.1993;552.7448
489.0147;-162.8167;20.2510;509.3761;-28.3852;239.0293;456.6305;-1.5433;552.9548
486.9333;-162.8167;20.2510;510.3650;-31.0602;240.1319;456.1728;-1.8047;553.1917
484.7587;-169.4598;24.1988;511.4350;-33.9932;241.2111;455.7164;-2.1367;553.4180
482.1186;-169.8076;24.9960;512.5275;-37.0405;242.4298;454.9547;-2.7328;553.6101
479.6943;-169.8076;24.9960;513.6420;-40.3809;243.7212;454.3798;-3.3766;553.8613
476.8456;-169.8076;24.1988;514.8196;-44.0426;245.0514;453.6636;-3.7775;553.9935
473.5018;-164.7401;16.3214;515.7115;-47.6805;246.3278;453.1579;-4.0283;554.1940
470.7316;-164.7401;16.3214;516.5306;-51.5764;247.8838;452.6603;-4.6891;554.6495
467.2662;-164.7401;16.3214;517.3751;-55.9254;249.5056;452.1044;-5.2231;554.9019
465.1369;-171.5832;21.8245;518.2034;-60.3801;251.1370;451.5137;-5.7149;555.0643
462.2081;-177.9224;27.2843;518.9930;-65.0584;252.9608;451.0611;-6.2706;555.6399
459.8698;-194.9548;43.3485;519.6527;-70.0143;254.8376;449.8508;-6.3655;557.1214
457.4913;-210.9272;59.1950;520.3246;-75.1570;256.8319;448.9935;-6.5747;557.1253
454.8095;-222.6337;71.5607;520.9992;-80.6773;258.9737;448.0821;-6.5747;557.1565
452.1353;-233.1797;83.3000;521.5841;-86.4723;261.2102;447.4245;-6.8113;557.1725
449.2228;-240.1140;92.2933;522.1346;-92.5262;263.6837;446.6490;-7.1514;557.1565
446.4851;-248.5426;103.0663;522.5836;-98.8582;266.2683;445.8834;-7.5741;557.1565
444.5909;-258.4700;115.6009;523.0578;-105.4968;269.1688;444.9630;-8.0741;557.1565
443.9649;-271.8986;131.7995;523.4463;-112.4205;272.2696;443.9590;-8.7995;557.1603
443.8615;-345.4964;205.8361;523.4974;-119.3490;275.6298;443.0634;-9.3441;557.1316
441.5593;-358.2408;222.5972;523.5657;-126.2760;278.8471;442.1815;-9.5074;557.1316
440.9985;-367.1034;236.4075;523.5657;-133.9949;283.0276;441.2586;-9.8482;557.1603
438.0119;-375.3058;249.9828;523.4463;-141.4535;286.7156;440.7623;-10.4513;557.2403
435.3754;-383.2825;263.7013;523.0939;-149.0249;290.6549;440.1202;-11.3510;557.5255
432.2993;-390.8618;277.5223;522.5740;-156.6568;294.8782;439.2087;-12.5661;558.1490
429.4150;-397.9813;291.0245;522.2637;-164.3256;299.4472;437.7636;-14.2228;558.7428
427.7926;-406.0234;304.6925;522.0079;-172.1053;304.3065;436.2284;-15.9603;559.2529
427.3826;-413.2974;318.6912;521.7355;-179.8846;309.5801;434.4844;-17.8488;559.8918
426.8893;-420.4187;330.2303;521.2928;-187.6689;314.8143;432.8896;-19.7382;560.5905
424.8074;-427.6309;343.3785;520.5214;-195.4850;320.2175;431.4088;-21.5693;561.3400
419.7208;-433.0610;357.0954;519.6390;-203.2710;325.8060;430.0222;-23.4287;562.2314
417.3496;-437.2749;371.6081;518.5858;-211.0439;331.5598;428.7404;-25.1181;562.9793
415.2545;-441.3216;385.8909;517.2178;-218.8078;337.5854;427.5217;-26.8451;563.9536
413.1846;-446.5921;399.9688;515.7941;-226.4667;343.6972;426.2336;-28.6258;565.1515
411.3135;-452.6527;413.8028;514.1073;-234.0123;349.9466;425.0437;-30.3954;566.3114
409.1488;-456.4808;427.1291;512.1928;-241.3843;356.2701;424.2036;-32.5667;568.2838
407.2383;-462.0672;440.7084;510.2087;-248.6007;362.7479;423.0250;-34.4188;569.7682
405.1356;-465.5133;453.4992;508.1320;-255.6667;369.4070;421.6496;-35.9989;570.9118
403.1572;-470.8492;466.8188;505.5469;-262.7995;375.8164;420.8867;-37.2122;572.2341
401.1115;-474.1237;479.0731;503.5259;-269.3147;382.9815;419.3118;-39.2434;573.8239
399.0770;-478.5738;491.8757;501.3343;-275.6995;389.9608;417.9112;-41.1213;575.5361
396.9511;-483.6400;504.4965;498.9751;-281.9768;397.0281;416.5568;-42.7338;576.9423
394.8420;-487.8175;516.3090;496.4307;-288.1092;404.0199;415.3936;-44.3926;578.6339
392.7728;-491.7225;527.8540;493.8752;-294.0035;411.2347;414.2759;-45.9317;580.2587
390.6555;-495.4255;539.1785;491.1857;-299.7492;418.4021;413.2099;-47.3993;581.8994
388.5566;-498.8411;550.2815;488.4945;-305.2906;425.7084;412.1430;-48.7773;583.3995
386.4143;-502.3519;561.1509;485.7125;-310.6199;432.9551;411.1596;-50.1627;584.9536
384.1849;-505.9146;571.6295;482.9234;-315.7880;440.2346;410.0029;-51.6206;586.5089
381.8736;-509.3171;581.7900;480.0245;-320.7280;447.5213;408.8999;-53.0065;588.1476
379.4538;-512.6608;591.6428;477.1232;-325.4393;454.6611;407.7301;-54.5039;589.8313
377.0324;-516.0458;601.1036;474.1122;-329.9963;461.8247;406.5771;-55.9426;591.6003
374.5752;-519.4485;610.2153;471.0416;-334.3603;468.9543;405.3471;-57.4545;593.3641
372.1179;-522.8508;618.9805;467.8129;-338.5430;475.9195;404.2340;-58.8791;595.2319
369.6923;-526.3074;627.3539;464.5611;-342.5095;482.8323;403.0438;-60.2892;597.1113
367.2675;-529.8454;635.3940;461.2645;-346.3224;489.6293;401.8999;-61.7074;599.0992
364.8413;-533.4649;643.0914;457.9106;-349.9208;496.3124;400.5859;-63.1574;601.1210
362.4527;-537.0628;650.4692;454.6191;-353.3879;502.9923;399.2630;-64.5532;603.0198
360.1265;-540.7020;657.5393;451.2417;-356.7032;509.5178;398.0446;-65.9238;604.8596
357.8110;-544.2926;664.3133;447.8298;-359.8467;515.8957;396.7775;-67.2758;606.7973
355.4036;-547.3049;670.3219;444.4126;-362.8404;522.1598;395.5572;-68.5834;608.6905
353.2246;-550.6349;676.0562;440.9586;-365.7113;528.2647;394.3648;-69.8758;610.4918
351.1792;-553.9454;681.3643;437.3955;-368.3637;534.1246;393.2171;-71.0745;612.4532
349.3401;-557.4171;686.6738;433.9028;-370.9222;539.9253;392.0201;-72.2994;614.3834
347.2162;-560.2597;691.5327;430.4486;-373.3536;545.5478;390.9046;-73.4666;616.2465
345.3650;-563.4985;696.4730;427.0478;-375.6380;550.9665;389.7469;-74.6392;618.1070
343.4117;-566.7778;700.9904;423.7457;-377.7980;556.2970;388.5712;-75.8265;619.6152
341.4400;-569.9842;705.2586;420.5853;-379.8990;561.5727;387.3748;-77.0142;621.1245
339.5941;-573.2563;709.4436;417.4498;-381.8298;566.6264;386.1259;-78.1427;622.6402
337.7254;-576.2636;713.2665;414.2872;-383.6309;571.4489;384.9961;-79.2092;624.0789
336.0286;-579.2867;717.0050;411.0937;-385.3388;576.0222;383.9356;-80.1640;625.4930
334.6446;-582.0201;720.0894;407.7763;-386.9171;580.3728;382.9670;-81.0448;626.8838
333.0266;-584.6619;723.5775;404.6392;-388.4463;584.5590;382.0623;-81.9048;628.1723
331.6172;-587.2601;726.8635;401.5537;-389.8229;588.3937;381.1088;-82.7117;629.5861
330.2897;-590.1430;730.1528;398.6195;-391.1122;592.0755;380.0737;-83.5574;630.9614
329.0085;-592.6308;732.7490;395.9713;-392.3042;595.5260;378.9815;-84.4124;632.2227
327.7533;-594.9954;735.0941;393.4217;-393.4514;598.8324;378.0034;-85.2055;633.3525
326.6551;-597.4787;737.4257;390.7531;-394.5886;602.2340;377.2994;-85.9199;634.0533
325.6129;-599.5453;739.3648;388.2515;-395.5450;605.1089;376.3541;-86.5272;634.8646
324.6915;-601.4439;741.1762;385.8571;-396.5381;607.8688;375.7955;-87.1457;635.3109
323.8616;-603.2216;742.8740;383.5132;-397.3595;610.1815;375.2612;-87.7061;635.9355
323.1726;-604.8373;744.4572;381.1383;-398.1183;612.5196;374.9693;-88.1954;636.2591
322.4506;-606.3706;745.9079;378.9441;-398.8120;614.4859;374.6642;-88.6703;636.6549
322.0371;-608.2619;747.3283;376.9866;-399.4569;616.2801;374.3769;-89.1307;636.8859
321.3927;-609.6554;748.2883;375.1518;-400.0173;617.8403;374.1684;-89.5346;637.0866
320.7952;-610.8485;749.1417;373.4697;-400.4937;619.2755;373.8742;-89.9116;637.4024
320.1870;-611.8263;749.8329;371.9663;-400.9845;620.5743;373.7204;-90.2273;637.5719
319.5739;-612.6521;750.4354;370.5700;-401.3642;621.7360;373.6282;-90.5105;637.6223
318.8999;-613.2871;750.9113;369.3746;-401.8090;622.8812;373.4860;-90.7990;637.6223
318.4352;-613.9386;751.3687;368.2015;-402.1549;623.8068;373.4578;-91.0355;637.6223
317.8586;-614.6951;751.7211;367.2259;-402.5081;624.7096;373.3289;-91.2823;637.6124
317.2976;-615.3424;751.9615;366.2303;-402.7495;625.3430;373.3092;-91.4270;637.6124
316.9599;-615.7540;752.2645;365.3278;-402.9266;625.8377;373.3049;-91.5481;637.6124
316.4358;-616.2219;752.4040;364.5157;-403.1146;626.2136;373.2573;-91.6286;637.7659
316.1896;-616.4469;752.4319;363.7451;-403.2419;626.5483;373.2436;-91.6664;637.8613
315.8831;-616.6191;752.4319;363.0910;-403.3231;626.7148;373.1839;-91.6668;638.0220
315.5741;-616.7562;752.4319;362.5634;-403.3680;626.9057;373.0897;-91.6668;638.2258
315.2788;-616.8550;752.2094;362.0416;-403.3875;626.9334;373.0897;-91.6668;638.2720
